Time Stamp (seconds),Battery Voltage,Battery Current
1669822273.018356,1.210237186e+001,4.000E+0
1669822273.6174545,1.205310518e+001,4.000E+0
1669822274.2220716,1.202039710e+001,4.000E+0
1669822274.8266814,1.199838947e+001,4.000E+0
1669822275.4244854,1.198313921e+001,4.000E+0
1669822276.0258207,1.197199458e+001,4.000E+0
1669822276.622301,1.196367563e+001,4.000E+0
1669822277.2132032,1.195717449e+001,4.000E+0
1669822277.814496,1.195183261e+001,4.000E+0
1669822278.4236495,1.194749437e+001,4.000E+0
1669822279.0284111,1.194350858e+001,4.000E+0
1669822279.632077,1.194027935e+001,4.000E+0
1669822280.2285433,1.193735435e+001,4.000E+0
1669822280.840166,1.193467979e+001,4.000E+0
1669822281.450606,1.193226390e+001,4.000E+0
1669822282.062296,1.192997494e+001,4.000E+0
1669822282.7046673,1.192769541e+001,4.000E+0
1669822283.3153167,1.192566921e+001,4.000E+0
1669822283.9188774,1.192379296e+001,4.000E+0
1669822284.5273325,1.192192082e+001,4.000E+0
1669822285.13058,1.192032989e+001,4.000E+0
1669822285.7373369,1.191855625e+001,4.000E+0
1669822286.3466666,1.191703647e+001,4.000E+0
1669822286.9563959,1.191536574e+001,4.000E+0
1669822287.566622,1.191390239e+001,4.000E+0
1669822288.1820517,1.191243048e+001,4.000E+0
1669822288.7935052,1.191090049e+001,4.000E+0
1669822289.4033704,1.190958631e+001,4.000E+0
1669822290.020995,1.190825927e+001,4.000E+0
1669822290.629577,1.190685542e+001,4.000E+0
1669822291.2491393,1.190559205e+001,4.000E+0
1669822291.858187,1.190430910e+001,4.000E+0
1669822292.4741654,1.190312533e+001,4.000E+0
1669822293.073176,1.190185808e+001,4.000E+0
1669822293.6829162,1.190079202e+001,4.000E+0
1669822294.2991962,1.189946102e+001,4.000E+0
1669822294.916175,1.189836075e+001,4.000E+0
1669822295.5327096,1.189718262e+001,4.000E+0
1669822296.1477132,1.189606893e+001,4.000E+0
1669822296.76371,1.189496051e+001,4.000E+0
1669822297.38103,1.189396995e+001,4.000E+0
1669822297.9913063,1.189283977e+001,4.000E+0
1669822298.6015286,1.189186236e+001,4.000E+0
1669822299.2322366,1.189076015e+001,4.000E+0
1669822299.8348997,1.188981836e+001,4.000E+0
1669822300.4444735,1.188879913e+001,4.000E+0
1669822301.0606892,1.188790418e+001,4.000E+0
1669822301.6780398,1.188684432e+001,4.000E+0
1669822302.293667,1.188589770e+001,4.000E+0
1669822302.9086394,1.188502340e+001,4.000E+0
1669822303.5181284,1.188401604e+001,4.000E+0
1669822304.1279035,1.188317655e+001,4.000E+0
1669822304.744295,1.188221246e+001,4.000E+0
1669822305.3600802,1.188124758e+001,4.000E+0
1669822305.9773922,1.188038241e+001,4.000E+0
1669822306.6256428,1.187947906e+001,4.000E+0
1669822307.2273107,1.187858239e+001,4.000E+0
1669822307.8428943,1.187769071e+001,4.000E+0
1669822308.471382,1.187683114e+001,4.000E+0
1669822309.0861456,1.187599239e+001,4.000E+0
1669822309.6963964,1.187521509e+001,4.000E+0
1669822310.299126,1.187426248e+001,4.000E+0
1669822310.9090776,1.187343540e+001,4.000E+0
1669822311.5187018,1.187265206e+001,4.000E+0
1669822312.1213672,1.187177740e+001,4.000E+0
1669822312.7303529,1.187106547e+001,4.000E+0
1669822313.3460822,1.187021104e+001,4.000E+0
1669822313.9625046,1.186944772e+001,4.000E+0
1669822314.581205,1.186863302e+001,4.000E+0
1669822315.1941016,1.186778314e+001,4.000E+0
1669822315.8056593,1.186702146e+001,4.000E+0
1669822316.4209485,1.186623210e+001,4.000E+0
1669822317.0374715,1.186547143e+001,4.000E+0
1669822317.653206,1.186470784e+001,4.000E+0
1669822318.2684875,1.186401828e+001,4.000E+0
1669822318.8779602,1.186317814e+001,4.000E+0
1669822319.5266285,1.186247184e+001,4.000E+0
1669822320.1399362,1.186167222e+001,4.000E+0
1669822320.7439814,1.186091939e+001,4.000E+0
1669822321.353358,1.186023582e+001,4.000E+0
1669822321.9702718,1.185948487e+001,4.000E+0
1669822322.5812726,1.185877902e+001,4.000E+0
1669822323.1866002,1.185810846e+001,4.000E+0
1669822323.7888901,1.185737419e+001,4.000E+0
1669822324.3986785,1.185668186e+001,4.000E+0
1669822325.0149796,1.185586608e+001,4.000E+0
1669822325.6326694,1.185528268e+001,4.000E+0
1669822326.2344768,1.185444840e+001,4.000E+0
1669822326.844893,1.185383603e+001,4.000E+0
1669822327.4543056,1.185315042e+001,4.000E+0
1669822328.0708084,1.185241027e+001,4.000E+0
1669822328.6868403,1.185168802e+001,4.000E+0
1669822329.3034284,1.185109598e+001,4.000E+0
1669822329.9133518,1.185041997e+001,4.000E+0
1669822330.5291274,1.184968162e+001,4.000E+0
1669822331.1379268,1.184904894e+001,4.000E+0
1669822331.7569926,1.184834410e+001,4.000E+0
1669822332.3654315,1.184759237e+001,4.000E+0
1669822332.974438,1.184703782e+001,4.000E+0
1669822333.5905874,1.184631926e+001,4.000E+0
1669822334.2418466,1.184555557e+001,4.000E+0
1669822334.856654,1.184488279e+001,4.000E+0
1669822335.4586263,1.184430676e+001,4.000E+0
1669822336.060506,1.184366897e+001,4.000E+0
1669822336.6607444,1.184301964e+001,4.000E+0
1669822337.2694948,1.184236944e+001,4.000E+0
1669822337.8789458,1.184172163e+001,4.000E+0
1669822338.4866066,1.184112416e+001,4.000E+0
1669822339.093556,1.184046636e+001,4.000E+0
1669822339.7031715,1.183980372e+001,4.000E+0
1669822340.318208,1.183911290e+001,4.000E+0
1669822340.9267707,1.183849062e+001,4.000E+0
1669822341.5377092,1.183800317e+001,4.000E+0
1669822342.1454704,1.183735310e+001,4.000E+0
1669822342.756544,1.183660510e+001,4.000E+0
1669822343.372022,1.183602483e+001,4.000E+0
1669822343.9895709,1.183535729e+001,4.000E+0
1669822344.6050453,1.183472248e+001,4.000E+0
1669822345.2175071,1.183413521e+001,4.000E+0
1669822345.8229375,1.183357107e+001,4.000E+0
1669822346.439606,1.183293862e+001,4.000E+0
1669822347.0561135,1.183233190e+001,4.000E+0
1669822347.6636417,1.183164802e+001,4.000E+0
1669822348.2794192,1.183104380e+001,4.000E+0
1669822348.8950403,1.183046797e+001,4.000E+0
1669822349.5031946,1.182976412e+001,4.000E+0
1669822350.1502683,1.182915758e+001,4.000E+0
1669822350.7580116,1.182852290e+001,4.000E+0
1669822351.3593252,1.182794148e+001,4.000E+0
1669822351.9601786,1.182743830e+001,4.000E+0
1669822352.5735698,1.182666240e+001,4.000E+0
1669822353.187931,1.182617257e+001,4.000E+0
1669822353.7966905,1.182559663e+001,4.000E+0
1669822354.4091706,1.182490897e+001,4.000E+0
1669822355.02359,1.182439734e+001,4.000E+0
1669822355.6323807,1.182369362e+001,4.000E+0
1669822356.238691,1.182319413e+001,4.000E+0
1669822356.8524728,1.182257476e+001,4.000E+0
1669822357.45787,1.182203688e+001,4.000E+0
1669822358.0732841,1.182145560e+001,4.000E+0
1669822358.6854837,1.182080964e+001,4.000E+0
1669822359.2912767,1.182018136e+001,4.000E+0
1669822359.9007156,1.181963552e+001,4.000E+0
1669822360.517794,1.181914181e+001,4.000E+0
1669822361.1340373,1.181851112e+001,4.000E+0
1669822361.7484107,1.181793692e+001,4.000E+0
1669822362.365987,1.181734561e+001,4.000E+0
1669822362.9723468,1.181673794e+001,4.000E+0
1669822363.588069,1.181612792e+001,4.000E+0
1669822364.1951523,1.181560962e+001,4.000E+0
1669822364.8054178,1.181500490e+001,4.000E+0
1669822365.4115832,1.181451066e+001,4.000E+0
1669822366.0276504,1.181374098e+001,4.000E+0
1669822366.637776,1.181328173e+001,4.000E+0
1669822367.244616,1.181265603e+001,4.000E+0
1669822367.854665,1.181214838e+001,4.000E+0
1669822368.4649003,1.181165153e+001,4.000E+0
1669822369.0802274,1.181102750e+001,4.000E+0
1669822369.6923914,1.181040251e+001,4.000E+0
1669822370.3109562,1.180991992e+001,4.000E+0
1669822370.921361,1.180935163e+001,4.000E+0
1669822371.539833,1.180874212e+001,4.000E+0
1669822372.148895,1.180824220e+001,4.000E+0
1669822372.7664764,1.180760628e+001,4.000E+0
1669822373.3772683,1.180699839e+001,4.000E+0
1669822373.9860568,1.180645274e+001,4.000E+0
1669822374.6029224,1.180593910e+001,4.000E+0
1669822375.2133017,1.180537877e+001,4.000E+0
1669822375.8304703,1.180481233e+001,4.000E+0
1669822376.44708,1.180435642e+001,4.000E+0
1669822377.0977454,1.180359941e+001,4.000E+0
1669822377.6984425,1.180313482e+001,4.000E+0
1669822378.3073716,1.180257493e+001,4.000E+0
1669822378.915731,1.180196532e+001,4.000E+0
1669822379.519983,1.180149902e+001,4.000E+0
1669822380.1229692,1.180091224e+001,4.000E+0
1669822380.7336156,1.180043015e+001,4.000E+0
1669822381.3512864,1.179990150e+001,4.000E+0
1669822381.9697425,1.179928986e+001,4.000E+0
1669822382.5712845,1.179868477e+001,4.000E+0
1669822383.181519,1.179821898e+001,4.000E+0
1669822383.7985306,1.179763096e+001,4.000E+0
1669822384.414755,1.179714395e+001,4.000E+0
1669822385.0256693,1.179648741e+001,4.000E+0
1669822385.6677568,1.179593768e+001,4.000E+0
1669822386.2761018,1.179534556e+001,4.000E+0
1669822386.8928373,1.179486037e+001,4.000E+0
1669822387.4934845,1.179429062e+001,4.000E+0
1669822388.1016405,1.179378195e+001,4.000E+0
1669822388.7092,1.179314258e+001,4.000E+0
1669822389.3173578,1.179275274e+001,4.000E+0
1669822389.9282727,1.179214025e+001,4.000E+0
1669822390.5448692,1.179166467e+001,4.000E+0
1669822391.1591992,1.179107131e+001,4.000E+0
1669822391.7771552,1.179052023e+001,4.000E+0
1669822392.391519,1.179009009e+001,4.000E+0
1669822393.0074856,1.178943184e+001,4.000E+0
1669822393.6228583,1.178890486e+001,4.000E+0
1669822394.238958,1.178846430e+001,4.000E+0
1669822394.8464026,1.178782381e+001,4.000E+0
1669822395.4632072,1.178725889e+001,4.000E+0
1669822396.0708325,1.178685467e+001,4.000E+0
1669822396.678044,1.178622842e+001,4.000E+0
1669822397.2856977,1.178572117e+001,4.000E+0
1669822397.9010277,1.178525955e+001,4.000E+0
1669822398.5151012,1.178462016e+001,4.000E+0
1669822399.1291568,1.178412586e+001,4.000E+0
1669822399.7397983,1.178357261e+001,4.000E+0
1669822400.3510919,1.178309246e+001,4.000E+0
1669822400.9628656,1.178248720e+001,4.000E+0
1669822401.5812545,1.178198929e+001,4.000E+0
1669822402.1927438,1.178140307e+001,4.000E+0
1669822402.8027928,1.178082146e+001,4.000E+0
1669822403.421901,1.178038902e+001,4.000E+0
1669822404.0334349,1.177989681e+001,4.000E+0
1669822404.6439576,1.177940024e+001,4.000E+0
1669822405.2623284,1.177877734e+001,4.000E+0
1669822405.8729637,1.177830160e+001,4.000E+0
1669822406.4844668,1.177772919e+001,4.000E+0
1669822407.1012275,1.177724426e+001,4.000E+0
1669822407.7123606,1.177659927e+001,4.000E+0
1669822408.3299391,1.177612022e+001,4.000E+0
1669822408.9392323,1.177555447e+001,4.000E+0
